wavelength,reflectance
350,0.782511479
351,0.782952582
352,0.783430187
353,0.783944293
354,0.784494902
355,0.785082013
356,0.785705627
357,0.786365742
358,0.787062359
359,0.787795478
360,0.788565099
361,0.789371222
362,0.790213848
363,0.791092975
364,0.792008604
365,0.792960736
366,0.793949369
367,0.794974505
368,0.796036142
369,0.797134282
370,0.798268923
371,0.799440067
372,0.800647713
373,0.80189186
374,0.80317251
375,0.805432025
376,0.807331264
377,0.809383255
378,0.811003776
379,0.812837441
380,0.81472883
381,0.816344517
382,0.818014075
383,0.819712797
384,0.821333118
385,0.822752848
386,0.824217408
387,0.825825358
388,0.827383796
389,0.829012306
390,0.830569027
391,0.832199854
392,0.833735711
393,0.835178856
394,0.836520306
395,0.837842813
396,0.839090013
397,0.840361785
398,0.841553412
399,0.842692088
400,0.843810362
401,0.844975427
402,0.8462069
403,0.847282497
404,0.848322045
405,0.849411911
406,0.850428085
407,0.851455612
408,0.852511795
409,0.853547474
410,0.854553278
411,0.85555895
412,0.856503516
413,0.857460003
414,0.858402792
415,0.859331445
416,0.86024008
417,0.861119717
418,0.86199777
419,0.862891564
420,0.863822146
421,0.864695352
422,0.865555178
423,0.866391209
424,0.86720132
425,0.868058016
426,0.868896064
427,0.869710283
428,0.870543523
429,0.871334588
430,0.872145593
431,0.872922078
432,0.873721773
433,0.874507593
434,0.87527469
435,0.876061036
436,0.876872497
437,0.877648927
438,0.878390623
439,0.879124898
440,0.879879961
441,0.880614243
442,0.881312751
443,0.882015554
444,0.882694357
445,0.883372189
446,0.884051562
447,0.884730669
448,0.885400964
449,0.886063496
450,0.886714188
451,0.887357643
452,0.887970301
453,0.888589645
454,0.889192921
455,0.889775615
456,0.890364108
457,0.890924992
458,0.891479179
459,0.892033454
460,0.892575226
461,0.893107874
462,0.893641684
463,0.894166504
464,0.8947026
465,0.89521995
466,0.895738761
467,0.896268511
468,0.896795402
469,0.897315458
470,0.897820034
471,0.898327112
472,0.898848301
473,0.899375384
474,0.899897492
475,0.90042892
476,0.900932649
477,0.90143242
478,0.901943292
479,0.90245349
480,0.902953713
481,0.903471684
482,0.903986792
483,0.904494941
484,0.904995322
485,0.905507154
486,0.906004542
487,0.906508504
488,0.907018995
489,0.907525359
490,0.908030756
491,0.908550046
492,0.909066459
493,0.909573658
494,0.910079816
495,0.910589105
496,0.911093626
497,0.911597392
498,0.912103158
499,0.912603649
500,0.913098157
501,0.913581458
502,0.914056731
503,0.914526567
504,0.914995214
505,0.915465923
506,0.915938578
507,0.916402064
508,0.916866061
509,0.917327306
510,0.917794569
511,0.91826355
512,0.918729115
513,0.919186471
514,0.919632798
515,0.920082737
516,0.920528956
517,0.920960496
518,0.92139821
519,0.921837697
520,0.922276073
521,0.92269875
522,0.923125991
523,0.923563625
524,0.923993276
525,0.924416067
526,0.924852915
527,0.925287671
528,0.925726799
529,0.926162812
530,0.926588776
531,0.927016535
532,0.927450629
533,0.927887893
534,0.928318991
535,0.928752837
536,0.929193043
537,0.929622824
538,0.930044405
539,0.930472595
540,0.930910286
541,0.931343066
542,0.931761804
543,0.932189422
544,0.932620182
545,0.933047303
546,0.933481577
547,0.933911396
548,0.934328483
549,0.934744655
550,0.935159971
551,0.935574787
552,0.935987296
553,0.936397417
554,0.936807162
555,0.93721173
556,0.937613854
557,0.938018601
558,0.938423534
559,0.938825934
560,0.939215973
561,0.939603714
562,0.939993373
563,0.940381866
564,0.940762983
565,0.941140988
566,0.94151698
567,0.941889693
568,0.942259717
569,0.942618155
570,0.942967564
571,0.94331861
572,0.943679142
573,0.94403275
574,0.944380443
575,0.94472278
576,0.945053431
577,0.945384051
578,0.945710477
579,0.946026017
580,0.946346651
581,0.94665785
582,0.946959912
583,0.947256353
584,0.947553027
585,0.947838772
586,0.948115026
587,0.948395544
588,0.948674954
589,0.94894209
590,0.949202777
591,0.949461139
592,0.949730305
593,0.950004151
594,0.950266842
595,0.950520355
596,0.950769049
597,0.951016711
598,0.951274604
599,0.951517116
600,0.951757211
601,0.952006379
602,0.952255856
603,0.952501276
604,0.95274027
605,0.952982936
606,0.953223906
607,0.953459863
608,0.953693674
609,0.953931426
610,0.95418305
611,0.954440365
612,0.954685978
613,0.954914321
614,0.955152342
615,0.955381615
616,0.955613442
617,0.955842203
618,0.956063552
619,0.95629267
620,0.956516453
621,0.956759295
622,0.956981348
623,0.957191247
624,0.957403753
625,0.957610481
626,0.957831095
627,0.958057876
628,0.958271742
629,0.958496319
630,0.95872291
631,0.958933516
632,0.959155261
633,0.95937026
634,0.959601664
635,0.959829965
636,0.960048889
637,0.960263389
638,0.960485933
639,0.960717333
640,0.960951996
641,0.961180787
642,0.961413779
643,0.9616399
644,0.961855831
645,0.962077423
646,0.962297882
647,0.962523711
648,0.962739944
649,0.96296445
650,0.963189555
651,0.963401152
652,0.963618292
653,0.963825921
654,0.964028798
655,0.964230399
656,0.964442283
657,0.964667503
658,0.964896592
659,0.965119787
660,0.965330299
661,0.96553931
662,0.965726533
663,0.965919929
664,0.966112762
665,0.966316332
666,0.966507656
667,0.966715048
668,0.966910573
669,0.967094782
670,0.967301797
671,0.967488221
672,0.967678617
673,0.967875399
674,0.968069819
675,0.968270641
676,0.968458909
677,0.968654937
678,0.968860629
679,0.969043292
680,0.969223832
681,0.969411026
682,0.969587602
683,0.969780873
684,0.969952821
685,0.970122963
686,0.970319848
687,0.970500634
688,0.970677413
689,0.970846442
690,0.971012543
691,0.971195818
692,0.971365371
693,0.971515024
694,0.97168327
695,0.971836789
696,0.9720015
697,0.972156926
698,0.972286446
699,0.972442995
700,0.972587141
701,0.972746584
702,0.972893547
703,0.973032442
704,0.973202831
705,0.973352298
706,0.973519282
707,0.973666503
708,0.973793704
709,0.973923365
710,0.974017712
711,0.974151712
712,0.974296844
713,0.974440251
714,0.974569349
715,0.974692617
716,0.974837915
717,0.974933214
718,0.97505308
719,0.97518346
720,0.975312665
721,0.975434868
722,0.975552508
723,0.975653203
724,0.975774984
725,0.975903556
726,0.976014099
727,0.976120285
728,0.976204602
729,0.976316188
730,0.97642648
731,0.976547274
732,0.976646361
733,0.976761621
734,0.976866507
735,0.976975675
736,0.977053247
737,0.977158802
738,0.977253257
739,0.977369156
740,0.977469526
741,0.977541264
742,0.977607353
743,0.977706761
744,0.977789652
745,0.977859768
746,0.977960589
747,0.978053197
748,0.978158867
749,0.978228046
750,0.978338943
751,0.978426089
752,0.978491552
753,0.978580268
754,0.978664698
755,0.978776082
756,0.9788497
757,0.978909164
758,0.97898038
759,0.979045612
760,0.979135721
761,0.97920472
762,0.979274185
763,0.979346471
764,0.979434547
765,0.979498556
766,0.979546107
767,0.979627838
768,0.979710489
769,0.979825051
770,0.97986516
771,0.979928622
772,0.980013969
773,0.980110996
774,0.98019919
775,0.98025896
776,0.980327586
777,0.980416513
778,0.980498988
779,0.980562902
780,0.980641526
781,0.980692501
782,0.980783798
783,0.980827999
784,0.980870818
785,0.980904398
786,0.980961126
787,0.980987891
788,0.981036016
789,0.981074102
790,0.981134553
791,0.981218272
792,0.981292424
793,0.98134996
794,0.981407374
795,0.981510372
796,0.981559763
797,0.981602093
798,0.981638313
799,0.981711904
800,0.981773838
801,0.981822826
802,0.981894562
803,0.981950288
804,0.982017132
805,0.982102465
806,0.982146466
807,0.982183431
808,0.982239811
809,0.982305698
810,0.982388691
811,0.982457462
812,0.982528144
813,0.982608542
814,0.982675813
815,0.982711274
816,0.982779092
817,0.982869133
818,0.982927546
819,0.982981553
820,0.983115771
821,0.983214992
822,0.983278875
823,0.983337491
824,0.983365833
825,0.983420879
826,0.983468379
827,0.983491795
828,0.983537841
829,0.983584371
830,0.983622698
831,0.983664346
832,0.983702769
833,0.983740827
834,0.983725758
835,0.983790957
836,0.983903802
837,0.984013751
838,0.984118256
839,0.984215785
840,0.984297872
841,0.984361789
842,0.984440578
843,0.984514868
844,0.984588582
845,0.98464353
846,0.984707699
847,0.984785248
848,0.984885825
849,0.984969822
850,0.985036415
851,0.985119731
852,0.985205873
853,0.985311243
854,0.985387314
855,0.985425621
856,0.985500669
857,0.98559371
858,0.985669969
859,0.985738801
860,0.985810934
861,0.985872351
862,0.985929043
863,0.985972506
864,0.986011741
865,0.986107256
866,0.986180244
867,0.986235588
868,0.986313107
869,0.98635501
870,0.986357297
871,0.986370371
872,0.986394503
873,0.986421462
874,0.986463347
875,0.986486005
876,0.986531529
877,0.986571213
878,0.986605844
879,0.986652848
880,0.986681382
881,0.98672625
882,0.986754329
883,0.986800201
884,0.986932052
885,0.987018111
886,0.987045418
887,0.987090493
888,0.98713411
889,0.987177773
890,0.98721904
891,0.987261357
892,0.98730756
893,0.987356659
894,0.987400628
895,0.987442918
896,0.987487148
897,0.987533766
898,0.987578663
899,0.987623559
900,0.987667214
901,0.987706832
902,0.987747674
903,0.987788454
904,0.987826422
905,0.987867021
906,0.987904231
907,0.987943274
908,0.987980068
909,0.988016118
910,0.988053994
911,0.988090886
912,0.988127954
913,0.988162772
914,0.988196224
915,0.988229134
916,0.98826046
917,0.98829112
918,0.988323871
919,0.98835638
920,0.98839013
921,0.988425142
922,0.98845888
923,0.988490556
924,0.988521065
925,0.988550423
926,0.988582856
927,0.988618164
928,0.988648185
929,0.988677746
930,0.988709841
931,0.98874065
932,0.98877035
933,0.988803772
934,0.988833244
935,0.988856299
936,0.988880051
937,0.988909162
938,0.988936489
939,0.988963163
940,0.988996624
941,0.989030291
942,0.989057709
943,0.989088339
944,0.989122706
945,0.989153768
946,0.989184578
947,0.989212535
948,0.989241562
949,0.989248988
950,0.989260225
951,0.989280338
952,0.989304096
953,0.989336052
954,0.989374942
955,0.989411018
956,0.989443678
957,0.989482102
958,0.989523898
959,0.989561032
960,0.989596749
961,0.989638001
962,0.989674996
963,0.989715549
964,0.989759275
965,0.989802453
966,0.989839208
967,0.989875056
968,0.989914306
969,0.989954272
970,0.989994456
971,0.990036649
972,0.990082339
973,0.990122635
974,0.990162134
975,0.990202682
976,0.990238214
977,0.990274357
978,0.99031212
979,0.990346917
980,0.99038169
981,0.99041679
982,0.99045059
983,0.990486722
984,0.990521165
985,0.990555941
986,0.990582255
987,0.990605269
988,0.990629524
989,0.990656174
990,0.990681741
991,0.990706384
992,0.990730953
993,0.990750469
994,0.990769669
995,0.990788715
996,0.99080251
997,0.990813807
998,0.990824084
999,0.990855137
1000,0.990888372
1001,0.99092313
1002,0.990955554
1003,0.990982067
1004,0.991002274
1005,0.991023978
1006,0.991049302
1007,0.991070033
1008,0.991088616
1009,0.991111927
1010,0.991137058
1011,0.991156336
1012,0.991176799
1013,0.991191376
1014,0.991206014
1015,0.99122195
1016,0.991243335
1017,0.991268602
1018,0.991293953
1019,0.991319689
1020,0.991346596
1021,0.9913718
1022,0.991391707
1023,0.991411911
1024,0.991430002
1025,0.991450013
1026,0.991474681
1027,0.991496697
1028,0.991521849
1029,0.991550142
1030,0.991576755
1031,0.991601055
1032,0.991625494
1033,0.991645935
1034,0.991665383
1035,0.991679499
1036,0.991699705
1037,0.991722943
1038,0.991747794
1039,0.99177742
1040,0.99180512
1041,0.991831853
1042,0.991857593
1043,0.99188065
1044,0.991900407
1045,0.991920225
1046,0.991940386
1047,0.991958974
1048,0.991974951
1049,0.991992705
1050,0.99201157
1051,0.99203077
1052,0.992054047
1053,0.992076194
1054,0.992098439
1055,0.992118756
1056,0.992137386
1057,0.992154743
1058,0.99217148
1059,0.992186435
1060,0.992204909
1061,0.992228481
1062,0.992253417
1063,0.992281596
1064,0.992306722
1065,0.992330064
1066,0.992356234
1067,0.992382419
1068,0.992406848
1069,0.992430905
1070,0.992452174
1071,0.992470621
1072,0.992486614
1073,0.992504384
1074,0.992526978
1075,0.992550727
1076,0.992577163
1077,0.992603134
1078,0.992624059
1079,0.992641456
1080,0.992660405
1081,0.992679945
1082,0.992696606
1083,0.992714292
1084,0.992730877
1085,0.992755177
1086,0.992780445
1087,0.992804977
1088,0.992828563
1089,0.992846699
1090,0.992859483
1091,0.992868851
1092,0.992875705
1093,0.992885664
1094,0.992897412
1095,0.992911406
1096,0.992927207
1097,0.992945277
1098,0.992963438
1099,0.992981643
1100,0.993001657
1101,0.993021733
1102,0.993042488
1103,0.993063701
1104,0.99308375
1105,0.993103571
1106,0.993123471
1107,0.993144516
1108,0.993165816
1109,0.993187892
1110,0.993210349
1111,0.993224779
1112,0.99323992
1113,0.99325827
1114,0.993272865
1115,0.993289096
1116,0.9933046
1117,0.993317593
1118,0.993330811
1119,0.993349117
1120,0.993366157
1121,0.993386497
1122,0.993410853
1123,0.993438431
1124,0.993462765
1125,0.993488908
1126,0.993511343
1127,0.99353213
1128,0.993554416
1129,0.993578611
1130,0.993601225
1131,0.993622694
1132,0.993647882
1133,0.993668719
1134,0.993687187
1135,0.9937026
1136,0.993718619
1137,0.993732579
1138,0.993745094
1139,0.993755853
1140,0.993767358
1141,0.993779707
1142,0.993794298
1143,0.993810189
1144,0.993822607
1145,0.993833362
1146,0.993839994
1147,0.993844324
1148,0.993848085
1149,0.993854264
1150,0.993855766
1151,0.993862383
1152,0.993865086
1153,0.993863588
1154,0.993863182
1155,0.993860483
1156,0.993856436
1157,0.993850472
1158,0.993846917
1159,0.993843523
1160,0.993835317
1161,0.993830127
1162,0.993821717
1163,0.993805893
1164,0.993797167
1165,0.993788467
1166,0.993780183
1167,0.993776022
1168,0.993776672
1169,0.993770849
1170,0.99376417
1171,0.993755357
1172,0.993745109
1173,0.993732401
1174,0.993724362
1175,0.993718075
1176,0.993711581
1177,0.993704708
1178,0.99369827
1179,0.993691732
1180,0.993685043
1181,0.993678567
1182,0.993669249
1183,0.993659511
1184,0.993647776
1185,0.993636751
1186,0.993623444
1187,0.99360946
1188,0.993597656
1189,0.993583539
1190,0.993570974
1191,0.993559849
1192,0.993550861
1193,0.993540436
1194,0.993532981
1195,0.993523711
1196,0.99352188
1197,0.993523827
1198,0.993529888
1199,0.993536488
1200,0.993546974
1201,0.993554559
1202,0.993564346
1203,0.993579639
1204,0.993594518
1205,0.993611561
1206,0.993629803
1207,0.993649021
1208,0.993664275
1209,0.993681011
1210,0.993695859
1211,0.993708381
1212,0.993724654
1213,0.993747632
1214,0.993765838
1215,0.993788851
1216,0.993809615
1217,0.993833043
1218,0.993853465
1219,0.993874536
1220,0.993894731
1221,0.993919855
1222,0.993948282
1223,0.993980578
1224,0.994009048
1225,0.994034327
1226,0.994059615
1227,0.994082358
1228,0.994105945
1229,0.99412862
1230,0.994149881
1231,0.994170674
1232,0.994189345
1233,0.994205073
1234,0.994219985
1235,0.994234034
1236,0.994245677
1237,0.994256848
1238,0.994267414
1239,0.994280368
1240,0.99429269
1241,0.99430539
1242,0.994320767
1243,0.994331784
1244,0.994342643
1245,0.994357669
1246,0.99436919
1247,0.994379034
1248,0.994387645
1249,0.994397771
1250,0.994408138
1251,0.994416437
1252,0.994422099
1253,0.994424656
1254,0.994425552
1255,0.994426618
1256,0.994425368
1257,0.994422297
1258,0.99441871
1259,0.994410773
1260,0.994404959
1261,0.99440098
1262,0.994394906
1263,0.994384886
1264,0.994380301
1265,0.994372494
1266,0.9943686
1267,0.994362578
1268,0.994356716
1269,0.994355227
1270,0.994357567
1271,0.994356476
1272,0.994353068
1273,0.994344696
1274,0.994340638
1275,0.99433412
1276,0.994327858
1277,0.994324997
1278,0.994322707
1279,0.994320887
1280,0.994318391
1281,0.99431303
1282,0.994307297
1283,0.994305414
1284,0.994304244
1285,0.994302762
1286,0.994302224
1287,0.994301772
1288,0.994299127
1289,0.994296887
1290,0.994297485
1291,0.994299936
1292,0.994295444
1293,0.994293116
1294,0.994293219
1295,0.99429065
1296,0.994288088
1297,0.994287756
1298,0.994287145
1299,0.994282566
1300,0.994277113
1301,0.994270665
1302,0.99426631
1303,0.994257632
1304,0.994250283
1305,0.994240368
1306,0.994223642
1307,0.994208147
1308,0.994191653
1309,0.994173998
1310,0.994153276
1311,0.994132279
1312,0.99411023
1313,0.994088961
1314,0.994070432
1315,0.994051903
1316,0.994033186
1317,0.994016968
1318,0.993997849
1319,0.993972202
1320,0.993945402
1321,0.993918565
1322,0.993896866
1323,0.993878008
1324,0.993857672
1325,0.993840269
1326,0.993825989
1327,0.993808542
1328,0.993786167
1329,0.993767453
1330,0.993752149
1331,0.993739393
1332,0.993730589
1333,0.993718176
1334,0.993708563
1335,0.993698685
1336,0.993689808
1337,0.993685653
1338,0.993682758
1339,0.993684511
1340,0.993681539
1341,0.993676363
1342,0.993676565
1343,0.993677173
1344,0.993672498
1345,0.993667013
1346,0.993661137
1347,0.993652792
1348,0.993643094
1349,0.993632522
1350,0.993622214
1351,0.99361119
1352,0.993595951
1353,0.993582753
1354,0.993567772
1355,0.993548807
1356,0.993532995
1357,0.993514058
1358,0.993495569
1359,0.993476731
1360,0.993457319
1361,0.99343718
1362,0.993416051
1363,0.99339504
1364,0.993370025
1365,0.993341925
1366,0.993315149
1367,0.993286299
1368,0.993260377
1369,0.993236294
1370,0.993213541
1371,0.9931917
1372,0.993165749
1373,0.993139671
1374,0.993115885
1375,0.99309539
1376,0.993074977
1377,0.993060964
1378,0.993052095
1379,0.993040593
1380,0.99303031
1381,0.993023392
1382,0.993017372
1383,0.993013266
1384,0.993011325
1385,0.993015283
1386,0.993019963
1387,0.993025288
1388,0.993032344
1389,0.993035748
1390,0.99303851
1391,0.993039769
1392,0.993034362
1393,0.99302795
1394,0.993025239
1395,0.993024071
1396,0.993025415
1397,0.993026687
1398,0.993030248
1399,0.993035883
1400,0.993043512
1401,0.99305087
1402,0.993062259
1403,0.993078491
1404,0.993095455
1405,0.993112152
1406,0.993131927
1407,0.993153743
1408,0.99317451
1409,0.993197458
1410,0.993222071
1411,0.993246977
1412,0.993275363
1413,0.993306011
1414,0.993339479
1415,0.993376009
1416,0.99341781
1417,0.99346098
1418,0.993505008
1419,0.993547576
1420,0.993593906
1421,0.993642691
1422,0.99369228
1423,0.993744845
1424,0.993799907
1425,0.993854881
1426,0.993912999
1427,0.993966396
1428,0.994019551
1429,0.994074257
1430,0.994126464
1431,0.994176069
1432,0.994223305
1433,0.994271117
1434,0.994315706
1435,0.994354151
1436,0.994390196
1437,0.994421164
1438,0.994447837
1439,0.99446969
1440,0.994490182
1441,0.99450387
1442,0.994519773
1443,0.994535164
1444,0.994548679
1445,0.994561098
1446,0.994572173
1447,0.994583015
1448,0.994591812
1449,0.994599931
1450,0.994606802
1451,0.994615403
1452,0.994624498
1453,0.994633416
1454,0.994641328
1455,0.994651151
1456,0.994658484
1457,0.994664062
1458,0.994671287
1459,0.994679546
1460,0.994688433
1461,0.994699684
1462,0.994713314
1463,0.994729724
1464,0.994746097
1465,0.994766697
1466,0.994784009
1467,0.994798801
1468,0.994812669
1469,0.994830749
1470,0.994846555
1471,0.994860932
1472,0.994877596
1473,0.994892788
1474,0.994909051
1475,0.994922796
1476,0.994932089
1477,0.994945967
1478,0.994957272
1479,0.99496875
1480,0.994984832
1481,0.995001584
1482,0.995017934
1483,0.995034354
1484,0.99504938
1485,0.995063007
1486,0.99507596
1487,0.995087353
1488,0.995096586
1489,0.995104453
1490,0.995111301
1491,0.995121139
1492,0.995129032
1493,0.99513691
1494,0.995145042
1495,0.995153203
1496,0.995161846
1497,0.995174915
1498,0.995189526
1499,0.995205096
1500,0.99522213
1501,0.995240074
1502,0.995256155
1503,0.995270237
1504,0.995282291
1505,0.995292907
1506,0.995305517
1507,0.99531676
1508,0.995334347
1509,0.995348086
1510,0.995358494
1511,0.99537366
1512,0.995382404
1513,0.995387795
1514,0.995392568
1515,0.995393838
1516,0.995390519
1517,0.995389005
1518,0.995390977
1519,0.995389144
1520,0.995391797
1521,0.995395957
1522,0.995401028
1523,0.995407386
1524,0.995406899
1525,0.995411742
1526,0.995417815
1527,0.995422271
1528,0.995431918
1529,0.995445851
1530,0.995453488
1531,0.995459731
1532,0.995466992
1533,0.995469305
1534,0.995470541
1535,0.995471211
1536,0.995472047
1537,0.995472227
1538,0.995472889
1539,0.995473279
1540,0.995473875
1541,0.995475147
1542,0.995479324
1543,0.995484686
1544,0.995490927
1545,0.995498824
1546,0.99550735
1547,0.995513579
1548,0.995520303
1549,0.995527817
1550,0.995535916
1551,0.995544606
1552,0.995555206
1553,0.995565252
1554,0.995575233
1555,0.995588131
1556,0.995594728
1557,0.995606969
1558,0.995610121
1559,0.995614599
1560,0.995625143
1561,0.995629334
1562,0.995636477
1563,0.995641452
1564,0.995649155
1565,0.99565663
1566,0.995666163
1567,0.995675255
1568,0.995679359
1569,0.99568565
